time,qa(t),qb(t),f(t),f_amplitude
0.0,0.05,0.05,0.55,0.55
0.1,0.05790006768146041,0.10775693421002144,0.5438240928648232,0.55
0.2,0.07147923993547445,0.16365395213057418,0.5254350690190833,0.55
0.30000000000000004,0.09052537414929872,0.21708294099690958,0.4952459062939723,0.55
0.4,0.11477252082829639,0.26747583296608,0.45393458820032306,0.55
0.5,0.1438978463419247,0.31431407140461354,0.4024288778806015,0.55
0.6000000000000001,0.17752163292373477,0.35712861088851383,0.3418854825488654,0.55
0.7000000000000001,0.21520727867137165,0.39549991720326005,0.27366407634044987,0.55
0.8,0.25649476897698115,0.4289775719496474,0.1992967649621704,0.55
0.9,0.3009050051830452,0.4571658117823411,0.12045367790117284,0.55
1.0,0.34786734667836905,0.4799125938384097,0.0389054609172366,0.55
1.1,0.396801458976354,0.49704854756923533,-0.04351648884370375,0.55
1.2000000000000002,0.4471196859802041,0.5083801895179793,-0.12496115208119803,0.55
1.3,0.4982270499829261,0.5136899233195824,-0.2035994572432079,0.55
1.4000000000000001,0.5495212516673307,0.5127360397007644,-0.27766535752992166,0.55
1.5,0.6003926701060305,0.5052527164800247,-0.34549549249750655,0.55
1.6,0.6502246195806209,0.49095096993521936,-0.40556654354768523,0.55
1.7000000000000002,0.698400324506572,0.46987639585583874,-0.4565294443793724,0.55
1.8,0.7442061111079816,0.44270893997635763,-0.4972396781093837,0.55
1.9000000000000001,0.7869856864011743,0.41022061220825856,-0.5267829806541997,0.55
2.0,0.8262087366259424,0.37326280015728086,-0.5444958731302451,0.55
2.1,0.8614709272455475,0.3327662691234198,-0.5499805621592381,0.55
2.2,0.8924939029467195,0.28974116210092726,-0.5431138734498757,0.55
2.3000000000000003,0.9191252876396565,0.24527699977831133,-0.5240500180268677,0.55
2.4000000000000004,0.9413386844580258,0.20054268053833663,-0.4932171289837808,0.55
2.5,0.9591916164753165,0.15699331990927173,-0.4513076465367585,0.55
2.6,0.972847866717161,0.11660785068447999,-0.399262767310077,0.55
2.7,0.9827050062224769,0.08094507375414528,-0.3382513070890656,0.55
2.8000000000000003,0.9892776435813091,0.05126952361140191,-0.2696434517373847,0.55
2.9000000000000004,0.9931936150959625,0.02856327291426522,-0.19497998577647213,0.55
3.0,0.9951939847810022,0.013525932485631664,-0.11593768968692884,0.55
3.1,0.9961092441566991,0.006546524538926611,-0.034291683033845416,0.55
3.2,0.9967094365755846,0.007620792108103857,0.048124440891696006,0.55
3.3000000000000003,0.9978493602663403,0.01664563447814235,0.12945979362494817,0.55
3.4000000000000004,1.0003085313618227,0.03314025935731399,0.2078877584921396,0.55
3.5,1.004757675784667,0.056196630329267284,0.28164701248301244,0.55
3.6,1.0117587292472863,0.08447946685302768,0.3490810817684491,0.55
3.7,1.0217633632333163,0.11623450683691514,0.40867554253152577,0.55
3.8000000000000003,1.0350241652773577,0.14988769488730874,0.4590920316615379,0.55
3.9000000000000004,1.0516695417287532,0.1837177509967276,0.49919830350412747,0.55
4.0,1.0716550823598965,0.21571364194437398,0.5280936576577013,0.55
4.1000000000000005,1.094703624723797,0.24383534327282633,0.545129166762658,0.55
4.2,1.1203052541540777,0.26601383928803757,0.5499222500108784,0.55
4.3,1.1477175338678194,0.2801515554769775,0.542365265085882,0.55
4.4,1.176084201527613,0.2844131168338388,0.5226279255771912,0.55
4.5,1.2043039684178276,0.27724815940908665,0.49115348957899224,0.55
4.6000000000000005,1.2311258160653877,0.2575243977891115,0.4486488050689463,0.55
4.7,1.2553017881236714,0.22477695740998135,0.3960684356264865,0.55
4.800000000000001,1.2755869903725139,0.17920837455744004,0.33459322299273964,0.55
4.9,1.2907395907182049,0.12168859636690985,0.2656037679107654,0.55
5.0,1.2996313046233914,0.05340590577397669,0.19064942480926422,0.55
5.1000000000000005,1.301372908110503,-0.02265808463680924,0.11141350664231939,0.55
5.2,1.2953004103360093,-0.10262708561206932,0.029675481309456877,0.55
5.300000000000001,1.2810810766145888,-0.18323555873438763,-0.05272899135707428,0.55
5.4,1.2587137541810154,-0.2618314865443291,-0.13394928455468608,0.55
5.5,1.228528872190157,-0.33637637254044495,-0.212161365598722,0.55
5.6000000000000005,1.1911884417169758,-0.4054452411792699,-0.2856087597641771,0.55
5.7,1.1474687168763045,-0.4673961607606179,-0.352641996921281,0.55
5.800000000000001,1.0980297004381478,-0.5202450540355786,-0.41175565507857,0.55
5.9,1.0437923189619898,-0.5636491757386359,-0.4616221689153166,0.55
6.0,0.9856672449324122,-0.5976543402120416,-0.5011216440365723,0.55
6.1000000000000005,0.9245488981634793,-0.6226688382425457,-0.5293670073869305,0.55
6.2,0.8613154457987404,-0.6394634370613971,-0.545723928998932,0.55
6.300000000000001,0.7968187017401157,-0.6491348125511343,-0.5498250676766017,0.55
6.4,0.7317230577199698,-0.6525970196330417,-0.5415783206867697,0.55
6.5,0.666551299056625,-0.650617834897433,-0.5211688921878963,0.55
6.6000000000000005,0.6017891799634106,-0.643894084068515,-0.4890551339439485,0.55
6.7,0.5378829840548729,-0.6330207137196894,-0.44595825173193077,0.55
6.800000000000001,0.4752395243467719,-0.6184907912735519,-0.3928461086149595,0.55
6.9,0.41422614325608553,-0.6006955050018932,-0.3309114888244553,0.55
7.0,0.35516743804342177,-0.5799151731894985,-0.2615453103977959,0.55
7.1000000000000005,0.29834260085448167,-0.5562077047869853,-0.18630538815783476,0.55
7.2,0.2440451545493938,-0.5295381463566545,-0.10688144855043415,0.55
7.300000000000001,0.1925662291917513,-0.49991570552219633,-0.02505718203132206,0.55
7.4,0.1441899221371748,-0.46739524952642403,0.05732981477613426,0.55
7.5,0.09919329803330962,-0.43207730523127225,0.13842930753946495,0.55
7.6000000000000005,0.0578463888198264,-0.39410805911779745,0.21641997649134,0.55
7.7,0.02041219372842301,-0.35367935728617944,0.2895503193450054,0.55
7.800000000000001,-0.012853835497116559,-0.31102796352915496,0.35617798625963254,0.55
7.9,-0.04175896934166267,-0.266423477992482,0.414806663477046,0.55
8.0,-0.06613828901285233,-0.22039351742757135,0.46411967730287074,0.55
8.1,-0.08586353256201981,-0.17357315663175737,0.5030095637591293,0.55
8.200000000000001,-0.10087925123310088,-0.1266135653559993,0.5306029398376354,0.55
8.3,-0.11120280946263153,-0.08018200830488434,0.5462801177994537,0.55
8.4,-0.11692438487974996,-0.03496184513662287,0.5496890220255526,0.55
8.5,-0.11820696830619509,0.008347469536948371,0.5407530958761755,0.55
8.6,-0.11528636375630696,0.049030386150367034,0.5196730209879238,0.55
8.700000000000001,-0.10847118843702684,0.0863552601845457,0.4869222103968416,0.55
8.8,-0.09813919912268053,0.11961896761193526,0.4432361767022474,0.55
8.9,-0.08472348146265458,0.14825311370917107,0.3895960140394209,0.55
9.0,-0.0687061890167119,0.17172454929488462,0.32720636482044063,0.55
9.1,-0.05060791003986812,0.18961722910282047,0.25746836606266127,0.55
9.200000000000001,-0.030987225457625264,0.20163734998662736,0.18194818287197584,0.55
9.3,-0.01044070886597323,0.20761335091985733,0.102341835750995,0.55
9.4,0.010397073468612558,0.20749591299596692,0.02043711163495355,0.55
9.5,0.03088583802320625,0.20133756360658925,-0.061926585948609524,0.55
9.600000000000001,0.05044775167053437,0.18927994055502514,-0.14289954591756668,0.55
9.700000000000001,0.06851474668621024,0.17160014115592093,-0.22066329015835534,0.55
9.8,0.08455767923093274,0.14867793602280388,-0.2934714126240156,0.55
9.9,0.09808739598946878,0.12099487752374767,-0.3596887998489665,0.55
10.0,0.10865473417065376,0.08913429978137227,-0.41782835207235175,0.55
10.100000000000001,0.11585052150739174,0.05378131867284308,-0.4665843802926735,0.55
10.200000000000001,0.11933974032646329,0.015675036248750843,-0.5048619292278613,0.55
10.3,0.11891186932210128,-0.024381085255492693,-0.5318013676503317,0.55
10.4,0.11442176996936437,-0.06552213300685383,-0.5467976938510984,0.55
10.5,0.10580261422317346,-0.10691447668910536,-0.5495141226738538,0.55
10.600000000000001,0.09306607249920659,-0.14775624954206665,-0.5398896489835112,0.55
10.700000000000001,0.0763023136739,-0.18727734836160054,-0.5181404177100224,0.55
10.8,0.055680005084446656,-0.22473943349961803,-0.48475486969922815,0.55
10.9,0.031447080451986575,-0.25944499519132247,-0.4404827723844816,0.55
11.0,0.003928094929091797,-0.2908102967779378,-0.38631838162649246,0.55
11.100000000000001,-0.026512484566376907,-0.31834296403204454,-0.3234781128701856,0.55
11.200000000000001,-0.05948414491783026,-0.34163948388194876,-0.25337322307624943,0.55
11.3,-0.09457028854604649,-0.360388333991249,-0.17757811693227754,0.55
11.4,-0.13132823340916924,-0.374369982758834,-0.09779498911771362,0.55
11.5,-0.16928921300270805,-0.38345688931888344,-0.01581559668105294,0.55
11.600000000000001,-0.207958376359539,-0.38761350354086765,0.06651897996066272,0.55
11.700000000000001,-0.24681478804990203,-0.38689626602954796,0.14735968371887198,0.55
11.8,-0.2853127686419181,-0.38145212482885843,0.22489100666938572,0.55
11.9,-0.323016538529662,-0.3714528011294736,0.29737176244634667,0.55
12.0,-0.3595218027268475,-0.35738579345331484,0.36317418953424413,0.55
12.100000000000001,-0.39443233640534875,-0.3399007138476228,0.42082050728230097,0.55
12.200000000000001,-0.4274317435299945,-0.3196816969762469,0.4690161036719803,0.55
12.3,-0.4582834568585716,-0.29744740011964343,0.506678609511913,0.55
12.4,-0.4868307379418225,-0.2739510031748771,0.5329622061164775,0.55
12.5,-0.5129966771234465,-0.2499802086556201,0.5472766205700084,0.55
12.600000000000001,-0.536784193540099,-0.22635724169215246,0.5493003819839258,0.55
12.700000000000001,-0.5582760351213911,-0.2039388500313631,0.538988041039844,0.55
12.8,-0.5775893221073534,-0.18363156241669654,0.5165711906832783,0.55
12.9,-0.5949755826225888,-0.16657150215046646,0.48255326504537654,0.55
13.0,-0.6109126988725059,-0.15388451309799578,0.4376982333976693,0.55
13.100000000000001,-0.6259151302622681,-0.1464812025858054,0.3830134430492519,0.55
13.200000000000001,-0.6405296217586678,-0.14505483950629625,0.3197269964979396,0.55
13.3,-0.6553352038901279,-0.15008135431774844,0.2492601708957885,0.55
13.4,-0.670943192746701,-0.1618193390443219,0.17319549922836383,0.55
13.5,-0.6879971899800694,-0.18031004727605632,0.09324123003561216,0.55
13.600000000000001,-0.7071730828035457,-0.20537739416887146,0.011192963832423687,0.55
13.700000000000001,-0.7291789817570109,-0.2366279164943476,-0.07110667220784081,0.55
13.8,-0.754512069838883,-0.27335207154768115,-0.15180940568720877,0.55
13.9,-0.7837158415826148,-0.31481248691440594,-0.22910282719650002,0.55
14.0,-0.817372684525652,-0.3599984018939477,-0.30125109312334764,0.55
14.100000000000001,-0.8558041634553007,-0.4073692918367888,-0.3666339089574686,0.55
14.200000000000001,-0.8990710204087244,-0.45485486814446485,-0.4237829176122129,0.55
14.3,-0.9469731746729482,-0.4998550782695697,-0.47141467555915,0.55
14.4,-0.9990497227848558,-0.5392401057157523,-0.508459476202767,0.55
14.5,-1.0545896518015834,-0.5694622290411797,-0.5340853731844608,0.55
14.600000000000001,-1.11265227676539,-0.5878247081383539,-0.5477168641041789,0.55
14.700000000000001,-1.1717284493081588,-0.5905095395624635,-0.5490478150636146,0.55
14.8,-1.2300554853350287,-0.5741860007024703,-0.5380483357735787,0.55
14.9,-1.2857009854836885,-0.5366274889909808,-0.514965450825456,0.55
15.0,-1.336562835124378,-0.47671152190424765,-0.4803175520514336,0.55
15.100000000000001,-1.3803692043598896,-0.39441973696216737,-0.4348827565615373,0.55
15.200000000000001,-1.414881743798948,-0.290949998230457,-0.3796814319108649,0.55
15.3,-1.4382163477865746,-0.1705808362679357,-0.3159532808440732,0.55
15.4,-1.4488038456618428,-0.039262609867069864,-0.24512950024438326,0.55
15.5,-1.4458126400828342,0.09704502590703784,-0.1688006395370513,0.55
15.600000000000001,-1.4291583725492722,0.23238992929064994,-0.08868088037830195,0.55
15.700000000000001,-1.3994078065691535,0.36067813002419485,-0.006569539830892282,0.55
15.8,-1.3574840325535251,0.4761676063379138,0.07568933841803363,0.55
15.9,-1.3048070785160506,0.5752478159452442,0.15624839730262038,0.55
16.0,-1.2430460094820959,0.6560330694006298,0.23329845403534835,0.55
16.1,-1.1741016455094528,0.7183232354817215,0.30510913045206856,0.55
16.2,-1.0998903406642069,0.7634093310179302,0.3700677135750893,0.55
16.3,-1.0219474795101968,0.7934915898041249,0.4267153736698709,0.55
16.400000000000002,-0.9416247935778659,0.811111363146152,0.4737799264157866,0.55
16.5,-0.8600311991470349,0.8189115318062737,0.5102044034233216,0.55
16.6,-0.7780325625226772,0.8196362249600573,0.5351707894654002,0.55
16.7,-0.6962487913316129,0.8158419405985108,0.5481183933358507,0.55
16.8,-0.6150097524842042,0.8091663135025321,0.5487564397651217,0.55
16.900000000000002,-0.5344892082541413,0.8009841406277239,0.5370705996059576,0.55
17.0,-0.45479141234806936,0.7923543231611484,0.5133233116351572,0.55
17.1,-0.37595177837201843,0.7840135684781537,0.4780478887444282,0.55
17.2,-0.29793687983142303,0.776376390142376,0.4320365408825999,0.55
17.3,-0.22065241074477,0.769557133926794,0.3763225837280629,0.55
17.400000000000002,-0.14401597078159187,0.7635200252143935,0.31215723264634915,0.55
17.5,-0.06794844453168705,0.7579972344636352,0.2409815030904624,0.55
17.6,0.007590586896593754,0.7526418489330923,0.16439384850045755,0.55
17.7,0.08259450540866287,0.7470564844276423,0.08411426248524499,0.55
17.8,0.15700965592371696,0.7407932852984654,0.0019456514741985158,0.55
17.900000000000002,0.2307353463747177,0.7333539244430465,-0.08026665467437889,0.55
18.0,0.30362384770840134,0.7241896033051735,-0.16067634480360993,0.55
18.1,0.37548039388528465,0.7127010518749373,-0.2374775906262001,0.55
18.2,0.44610813369825414,0.6983053756038182,-0.3089456017346308,0.55
18.3,0.515234235197332,0.6804531522279831,-0.37347536067530485,0.55
18.400000000000002,0.5823481492557652,0.6584829201256133,-0.42961766818031294,0.55
18.5,0.6469484116012889,0.6319189091544136,-0.4761116890587292,0.55
18.6,0.7085538913938256,0.6004851450846941,-0.5119132678367868,0.55
18.7,0.7667037912254693,0.5641054495993774,-0.536218378238753,0.55
18.8,0.8209576471205022,0.5229034402939894,-0.5484811798837108,0.55
18.900000000000002,0.8708953285353809,0.47720253067666824,-0.5484262766837444,0.55
19.0,0.916117038358742,0.42752593016816115,-0.5360549016463618,0.55
19.1,0.9562438804128809,0.3745970165021921,-0.5116448891837996,0.55
19.200000000000003,0.9910003613491719,0.31954683479506935,-0.4757444355511028,0.55
19.3,1.0202444583095274,0.26412377117025787,-0.4291597875400771,0.55
19.400000000000002,1.0439798407097376,0.21006355953373448,-0.3729371359145073,0.55
19.5,1.062393367085271,0.15898495547833652,-0.3083391202210584,0.55
19.6,1.075855085091281,0.11238973628374693,-0.23681647262714473,0.55
19.700000000000003,1.0849182315026007,0.07166270091650673,-0.15997543760404778,0.55
19.8,1.0903102365056172,0.038062455338653066,-0.07954169913894588,0.55
19.900000000000002,1.0927635065370518,0.012498799774054992,0.002678374407087964,0.55
20.0,1.093095567911593,-0.004510591238286982,0.08483829743817123,0.55
20.1,1.0921587314124928,-0.012869666161855274,0.16509293520931223,0.55
20.200000000000003,1.0907978479629565,-0.012938908810820642,0.24163994157490234,0.55
20.3,1.0898108389382892,-0.0054457417819005595,0.31276023579752293,0.55
20.400000000000002,1.089917327940731,0.00862185716538014,0.37685660939519283,0.55
20.5,1.091716142127722,0.027977516142271494,0.432489596000491,0.55
20.6,1.095648901004762,0.05106707417164278,0.47840979867186606,0.55
20.700000000000003,1.1019881590778695,0.07614925792587057,0.5135859486554007,0.55
20.8,1.1108380371654896,0.10141558753427918,0.537228065457744,0.55
20.900000000000002,1.1221512059094205,0.12492308727579435,0.548805198104896,0.55
21.0,1.1356820869144555,0.1448318377416293,0.5480573491564187,0.55
21.1,1.1509852443262367,0.1594139045432125,0.5350013136874279,0.55
21.200000000000003,1.1674153848312512,0.16705333831218244,0.5099303021074144,0.55
21.3,1.1841821210665302,0.16632358559010132,0.4734073552865725,0.55
21.400000000000002,1.2004269139104788,0.15627268007832895,0.4262526998716963,0.55
21.5,1.2151354105977221,0.13633375708096113,0.36952532776399855,0.55
21.6,1.227325363473845,0.10643788276102073,0.30449921344405695,0.55
21.700000000000003,1.2360557803993795,0.06702255101213696,0.23263470325151894,0.55
21.8,1.2404269693046615,0.01903093637579053,0.15554571915461457,0.55
21.900000000000002,1.2396432530102393,-0.03644373380862316,0.07496351354217139,0.55
22.0,1.2331016992851767,-0.0970326873390208,-0.007302210972682714,0.55
22.1,1.2203957261327092,-0.15994683860447306,-0.08940394357172701,0.55
22.200000000000003,1.2013397279430515,-0.22283263751484794,-0.16949785634161266,0.55
22.3,1.1759690754933974,-0.28377206950081746,-0.24578521267376263,0.55
22.400000000000002,1.1445401159479167,-0.3412826555138637,-0.31655276301073876,0.55
22.5,1.1075301728577616,-0.39431745202626467,-0.380211220737759,0.55
22.6,1.0656061074631782,-0.44213479013745,-0.4353309541337687,0.55
22.700000000000003,1.0192905898186337,-0.48320925942720017,-0.48067409281778284,0.55
22.8,0.9692495543063278,-0.5170175065334182,-0.5152223276489684,0.55
22.900000000000002,0.9161987633425082,-0.5434923014132611,-0.5381997797545918,0.55
23.0,0.8608423901269768,-0.5627342421824455,-0.5490904250968083,0.55
23.1,0.8038730186430738,-0.5750117551152557,-0.5476496832600698,0.55
23.200000000000003,0.7459716436576913,-0.5807610946445377,-0.5339099101999745,0.55
23.3,0.6878076707212679,-0.5805863433617028,-0.5081796715982589,0.55
23.400000000000002,0.6300007261857967,-0.5750990400101023,-0.47103681314281465,0.55
23.5,0.5730288348081356,-0.5645315516243475,-0.4233154833592993,0.55
23.6,0.5173502274235913,-0.5491065136682927,-0.3660874004335648,0.55
23.700000000000003,0.4634185578374134,-0.5290352448126254,-0.3006377837317023,0.55
23.8,0.41168248574489824,-0.5045156570107462,-0.2284364905438313,0.55
23.900000000000002,0.36258567673138303,-0.4757322554987657,-0.1511050062581991,0.55
24.0,0.31656680227225914,-0.44285613879551056,-0.07038002929507257,0.55
24.1,0.2740595397329574,-0.4060449987025156,0.011925531395684655,0.55
24.200000000000003,0.23545037727335055,-0.3653804206465062,0.09396327036121117,0.55
24.3,0.2011031702235645,-0.320916263197544,0.17389079684721645,0.55
24.400000000000002,0.1714006318876066,-0.2728310345952488,0.24991311092234805,0.55
24.5,0.14668877203350666,-0.22137490619325356,0.3203229153068632,0.55
24.6,0.1272767641864406,-0.16686953725949422,0.3835389575888203,0.55
24.700000000000003,0.11343694562873716,-0.10970807497622209,0.4381415417442615,0.55
24.8,0.1054048173998744,-0.05035515443999872,0.4829044114492457,0.55
24.900000000000002,0.1033790442964796,0.010653101338310544,0.5168222891532203,0.55
25.0,0.10752145250108992,0.07270907701578258,0.5391334524455595,0.55
25.1,0.11787503445737416,0.13504428343851768,0.5493368406987319,0.55
25.200000000000003,0.13442787994953798,0.19706121302160468,0.5472033078097702,0.55
25.3,0.15717074624887545,0.25829590413408837,0.5327807683277371,0.55
25.400000000000002,0.18601639892606497,0.3182118946887581,0.5063931213962489,0.55
25.5,0.2207996118511632,0.37620022214213267,0.46863297667699544,0.55
25.6,0.261277167193613,0.43157942349447725,0.4203483456143267,0.55
25.700000000000003,0.30712785542223575,0.4835955352897893,0.36262359692642643,0.55
25.8,0.35795247530523355,0.5314220936158043,0.2967551040216487,0.55
25.900000000000002,0.4132738339101961,0.5741601341040012,0.2242221312465895,0.55
26.0,0.4725367466040875,0.6108381919295905,0.1466536127979655,0.55
26.1,0.5351080370532615,0.6404123018115263,0.06579157037232532,0.55
26.200000000000003,0.6002830248198036,0.6617782983850032,-0.01654800888566352,0.55
26.3,0.6672763489842624,0.6738459979590158,-0.09851595553947079,0.55
26.400000000000002,0.7349581733495049,0.6752594177302743,-0.17827144621965998,0.55
26.5,0.8021062078080573,0.6648177338424458,-0.2540233445481901,0.55
26.6,0.8674714835939349,0.6415831973342966,-0.3240704262000085,0.55
26.700000000000003,0.9297783532826256,0.6048811341396945,-0.3868395847337566,0.55
26.8,0.9877244907910971,0.554299945087609,-0.44092116017104666,0.55
26.900000000000002,1.0399808913778035,0.48969110590210474,-0.48510059692051594,0.55
