time,qa(t),qb(t),f(t),f_amplitude
2250.0,-0.2111156671148553,0.8879509406415272,0.44269959428732536,0.74
2250.1,-0.12243875213530431,0.8848162873076856,0.3491157659160224,0.74
2250.2000000000003,-0.0341597916555797,0.8804745697583335,0.24769155009058338,0.74
2250.3,0.053604657795872895,0.8745959195858055,0.14070471604169826,0.74
2250.4,0.14073407261658435,0.8668122043247909,0.03055795741188228,0.74
2250.5,0.22696980658624347,0.8563316794407829,-0.08027506706202354,0.74
2250.6,0.31196444601317613,0.8422566020516562,-0.1893052865925012,0.74
2250.7000000000003,0.3953039185287024,0.8237434459019699,-0.29408411750473235,0.74
2250.8,0.4765074930856276,0.800002901363324,-0.39225845314521324,0.74
2250.9,0.5550277799605201,0.7702998754338599,-0.48162350958709116,0.74
2251.0,0.6302507307521842,0.7339534917385724,-0.5601723403220895,0.74
2251.1,0.7014956383820444,0.6903370905292364,-0.6261409079534258,0.74
2251.2000000000003,0.768017274695079,0.6388783629232656,-0.6780477006721702,0.74
2251.3,0.8290958099535746,0.5794028472917934,-0.7147270038177298,0.74
2251.4,0.8838857332829761,0.5128856443488995,-0.7353550793175193,0.74
2251.5,0.9316538617498478,0.4407346310430915,-0.739468665067318,0.74
2251.6,0.9718989986958739,0.3646181269087434,-0.7269753787996375,0.74
2251.7000000000003,1.0043519337379885,0.28646489406573855,-0.6981557927898983,0.74
2251.8,1.0289754427678206,0.2084641372209034,-0.6536571328087263,0.74
2251.9,1.045964287952581,0.13306550366585956,-0.594478742825818,0.74
2252.0,1.055709139840514,0.06308508334216839,-0.5219496418993909,0.74
2252.1,1.0588650030131932,0.0014518388330139187,-0.4376986772726225,0.74
2252.2000000000003,1.056377506281478,-0.04955030510037839,-0.3436179439761225,0.74
2252.3,1.0493718091639481,-0.08823404855832542,-0.24182029245451392,0.74
2252.4,1.0391514563865647,-0.1135066597038796,-0.13459187849798837,0.74
2252.5,1.0270995358920427,-0.12488641530793614,-0.024340821113604312,0.74
2252.6,1.014620264803635,-0.12236708391313152,0.08645687863729189,0.74
2252.7000000000003,1.003086022241239,-0.10646968775146164,0.19531294328462423,0.74
2252.8,0.9937559405982921,-0.07831249441896485,0.29978270029516657,0.74
2252.9,0.98777299527891,-0.03960585136143604,0.3975199841502263,0.74
2253.0,0.9860638741254572,0.0077451821355684625,0.4863298261632445,0.74
2253.1,0.9894551765403635,0.06180450051440983,0.5642177487455852,0.74
2253.2000000000003,0.9985459543236606,0.12027091185657073,0.6294345570728094,0.74
2253.3,1.0136300883163794,0.18050480905053867,0.6805156222283341,0.74
2253.4,1.0346962884007969,0.2395281697934194,0.716313773613225,0.74
2253.5,1.0614355937110218,0.29414525284361126,0.736025061923577,0.74
2253.6,1.0932796141872185,0.3414875192541498,0.7392068141190898,0.74
2253.7000000000003,1.129324256021174,0.37805327750058193,0.7257875749047725,0.74
2253.8,1.1683650043084128,0.4006709963832453,0.6960687114632618,0.74
2253.9,1.2089065829227152,0.40667842301120305,0.6507176453973712,0.74
2254.0,1.2491629545154752,0.3939225828015114,0.5907528638800474,0.74
2254.1,1.2871253473944817,0.3606750553925246,0.5175210466276501,0.74
2254.2000000000003,1.3208063387049607,0.3063466575792664,0.43266682237668364,0.74
2254.3,1.3480012344924257,0.2327634434443314,0.3380958340696899,0.74
2254.4,1.3668407434328105,0.1424841637954797,0.23593194222085231,0.74
2254.5,1.3758578940127915,0.03863604141893695,0.12846952758914748,0.74
2254.6,1.3739880345299513,-0.07508522892080544,0.018121964331672596,0.74
2254.7000000000003,1.3605402454241797,-0.19403192620160803,-0.0926325791767204,0.74
2254.8,1.3352775832552979,-0.31172398324842965,-0.2013067946604569,0.74
2254.9,1.298573349179033,-0.42307703474248853,-0.30546009352781306,0.74
2255.0,1.2511583304546183,-0.5243005142382409,-0.4027534172271326,0.74
2255.1,1.1941047261820017,-0.6128061914205807,-0.4910017674604237,0.74
2255.2000000000003,1.1288261473015333,-0.6872081721051456,-0.568223276534042,0.74
2255.3,1.0569720488298664,-0.7473015301174266,-0.6326837158331384,0.74
2255.4,0.9798428060715053,-0.7940267122973752,-0.6829354428597665,0.74
2255.5,0.898637707770613,-0.8289643599224218,-0.7178499121611208,0.74
2255.6,0.8144197267393318,-0.8538337885138627,-0.736643020028001,0.74
2255.7000000000003,0.7280971500875254,-0.8704747403597362,-0.7388927137732187,0.74
2255.8,0.6404235792243584,-0.8808473845145597,-0.724548470125213,0.74
2255.9,0.5519940587363319,-0.8869605438995829,-0.6939324298719959,0.74
2256.0,0.46316580590840456,-0.8899573837647524,-0.6477321632735518,0.74
2256.1,0.37413818567625745,-0.8906550947651584,-0.5869852287157433,0.74
2256.2000000000003,0.28508961032663804,-0.8897055598484855,-0.5130558713856266,0.74
2256.3,0.19618258102081937,-0.887501547908655,-0.42760438526721056,0.74
2256.4,0.10756368779216907,-0.8841767137857952,-0.3325498265160389,0.74
2256.5,0.019363609547769722,-0.8796055982662548,-0.23002691559651553,0.74
2256.6,-0.06830488154422844,-0.8734357410026689,-0.12233809606132544,0.74
2256.7000000000003,-0.155305477032572,-0.8652636660252776,-0.01190182663322452,0.74
2256.8,-0.24135863701693,-0.8542400369812366,0.09880173216191127,0.74
2256.9,-0.32610573935418746,-0.8394762273476667,0.20728641705658413,0.74
2257.0,-0.4091215032234526,-0.8201378272284923,0.3111158959068552,0.74
2257.1,-0.48991398912645334,-0.7954446433544098,0.40795838246116717,0.74
2257.2000000000003,-0.5679245988878857,-0.7646706990827328,0.4956390032520338,0.74
2257.3,-0.642528075654006,-0.7271442343979785,0.5721886405638568,0.74
2257.4,-0.7130325038947647,-0.6822477059110337,0.6358881545741172,0.74
2257.5,-0.7786889239610232,-0.6294224593488205,0.68530699152602,0.74
2257.6,-0.8387712317743996,-0.5686755653651905,0.7193353108825354,0.74
2257.7000000000003,-0.8924254208302309,-0.5011054997410027,0.7372089099516819,0.74
2257.8,-0.9389573159741502,-0.42816393204613606,0.7385263862313239,0.74
2257.9,-0.9779047283276565,-0.3515629744354332,0.7232581520446102,0.74
2258.0,-1.009037455287105,-0.27327518164990583,0.6917470990151344,0.74
2258.1,-1.0323572805239674,-0.19553355101644132,0.6447008974601142,0.74
2258.2000000000003,-1.0480978687161193,-0.12083174604436313,0.5831761036404632,0.74
2258.3,-1.0566771216811157,-0.05206816815456371,0.5085544317862792,0.74
2258.4,-1.0588130012785646,0.007920883296441888,0.42251172377246443,0.74
2258.5,-1.0554822337922067,0.05695353977845258,0.32698031332424127,0.74
2258.6,-1.0478399823473845,0.09344247120533153,0.2241056299665208,0.74
2258.7000000000003,-1.0372168812597744,0.11639638124994768,0.11619801730218363,0.74
2258.8,-1.0249922871544246,0.1254281146000436,0.005680847677618755,0.74
2258.9,-1.0125790238987429,0.12060659982789841,-0.10496390153860467,0.74
2259.0,-1.0013304285234608,0.10255328413888663,-0.21325138781469113,0.74
2259.1,-0.9924865913326932,0.07248686010222052,-0.3167497076631968,0.74
2259.2000000000003,-0.9871637132731486,0.03220111643778618,-0.41313451195003253,0.74
2259.3,-0.9862572847154137,-0.016424380588877505,-0.5002412057633165,0.74
2259.4,-0.9905733511169887,-0.07139489181023162,-0.576113560551194,0.74
2259.5,-1.0006596507185248,-0.13035232183243672,-0.639047646796049,0.74
2259.6,-1.0167587508018177,-0.19060016006949254,-0.6876301005989167,0.74
2259.7000000000003,-1.0388080476899217,-0.2491034807434952,-0.7207698647850982,0.74
2259.8,-1.0664536423619932,-0.3027085474509898,-0.7377226916956935,0.74
2259.9,-1.0990758074470577,-0.3484823323036488,-0.7381078573865406,0.74
2260.0,-1.1357163933091163,-0.3829107084835369,-0.7219167118666651,0.74
2260.1,-1.175121994437671,-0.40290777837453473,-0.6895128733584291,0.74
2260.2000000000003,-1.2157484441001638,-0.4058969226686382,-0.6416240622158582,0.74
2260.3,-1.2557608143412293,-0.38981080036598154,-0.5793257578954284,0.74
2260.4,-1.2931503283389656,-0.3529786055466663,-0.5040170460048807,0.74
2260.5,-1.3258886157252094,-0.29525789513553446,-0.41738919785760736,0.74
2260.6,-1.3517983550466643,-0.21867285739741302,-0.32138768816421764,0.74
2260.7000000000003,-1.3690779038195644,-0.12587782995652091,-0.21816850386479653,0.74
2260.8,-1.3763279393707983,-0.02009562241675783,-0.11004972531225653,0.74
2260.9,-1.37255145883839,0.09488248364084989,0.0005405328176690205,0.74
2261.0,-1.35711347894648,0.21406658830801084,0.11111865174549662,0.74
2261.1,-1.3298904225732497,0.3310092063321609,0.21920128531273184,0.74
2261.2000000000003,-1.291324796684094,0.4408913591953138,0.3223611305824047,0.74
2261.3,-1.2422047958908649,0.5401246495779537,0.4182814398282291,0.74
2261.4,-1.183660026645655,0.6263230162925449,0.5048080496967796,0.74
2261.5,-1.1171615072414505,0.698302734281479,0.5799977590705003,0.74
2261.6,-1.0443381262731353,0.7560523898872966,0.6421619691765384,0.74
2261.7000000000003,-0.966442594245313,0.8006804337479847,0.689904605874248,0.74
2261.8,-0.8846607605067028,0.8338016184181114,0.7221534724699167,0.74
2261.9,-0.8000295879434904,0.8571555088100717,0.7381843289444036,0.74
2262.0,-0.7134313537403263,0.8726020966027407,0.737637156821794,0.74
2262.1,-0.6255936493799802,0.8821218002417053,0.720524244408402,0.74
2262.2000000000003,-0.5370799040732279,0.8876609192559498,0.6872299108235308,0.74
2262.3,-0.44820497117103164,0.8902145117081741,0.6385018750214015,0.74
2262.4,-0.35916178311544544,0.8905967090106746,0.5754344636346427,0.74
2262.5,-0.2701260767865488,0.8894158248789538,0.4994440347579789,0.74
2262.6,-0.18125767793772818,0.8870210589747233,0.4122371695981576,0.74
2262.7000000000003,-0.09270050119527457,0.8835024969058854,0.3157723463392041,0.74
2262.8,-0.004582550059993862,0.8786911102266015,0.21221595694652942,0.74
2262.9,0.08298672549325767,0.872221472563334,0.10389365467128742,0.74
2263.0,0.16985024685166122,0.8636343804981977,-0.006761875106108164,0.74
2263.1,0.2557106933872062,0.8520425228104979,-0.11726554774635907,0.74
2263.2000000000003,0.3401982345049231,0.8365663893365805,-0.22513568899440148,0.74
2263.3,0.4228763809313116,0.8163806865397708,-0.3279497680310384,0.74
2263.4,0.5032419847166487,0.7907143375099568,-0.4233988022954393,0.74
2263.5,0.5807252392334433,0.7588504819638482,-0.5093392122536875,0.74
2263.6,0.6546896791768245,0.7201264762449161,-0.5838409615749627,0.74
2263.7000000000003,0.7244321805648474,0.6739338933231644,-0.645230901586088,0.74
2263.8,0.7892044831139615,0.6197393652775004,-0.6921303465826543,0.74
2263.9,0.8482643777594298,0.5577547729659547,-0.7234860361394485,0.74
2264.0,0.9007632058567328,0.4891728882799724,-0.7385937890678591,0.74
2264.1,0.9460458000315477,0.41548917340957847,-0.7371143178076176,0.74
2264.2000000000003,0.9836889791848178,0.33845953313032645,-0.7190808480935192,0.74
2264.3,1.0135015484921024,0.2601003148047167,-0.6848983727775775,0.74
2264.4,1.0355242994046063,0.18268830838008154,-0.6353345565623153,0.74
2264.5,1.0500273884629117,0.10876685036727955,-0.571502495906895,0.74
2264.6,1.0574625189870754,0.04130069976489745,-0.4948357212797451,0.74
2264.7000000000003,1.0586060303717455,-0.01698246980979476,-0.40705600315466184,0.74
2264.8,1.0544646525074484,-0.06400075963912677,-0.31013468475963807,0.74
2264.9,1.0462235521263406,-0.09826680945030311,-0.20624840995561375,0.74
2265.0,1.0352357658017541,-0.11889237285732829,-0.09773024050950378,0.74
2265.1,1.0228799633790875,-0.12557676822155395,0.012982739444541659,0.74
2265.2000000000003,1.0105709713807824,-0.11847064049082816,0.12340415506045325,0.74
2265.3,0.9996430847484776,-0.098295861843934,0.23105417939694028,0.74
2265.4,0.9913173516970196,-0.06637154982338125,0.3335152249874211,0.74
2265.5,0.9866786729556989,-0.024559108452155483,0.42848623764056437,0.74
2265.6,0.9865990516274312,0.02528374889939164,0.5138343731578655,0.74
2265.7000000000003,0.991855368432104,0.08109878161424176,0.5876428964156871,0.74
2265.8,1.002944048051018,0.14047099082303938,0.6482542271026703,0.74
2265.9,1.0200563442066732,0.20064696246502223,0.6943071654021018,0.74
2266.0,1.043078339662701,0.2585348672870213,0.7247674616039513,0.74
2266.1,1.0716131883018873,0.31105155071616014,0.7389510431241932,0.74
2266.2000000000003,1.1049862807791069,0.3551552062024056,0.7365393772998067,0.74
2266.3,1.1421873726473373,0.3873589515312006,0.7175866249459114,0.74
2266.4,1.1819141677898581,0.4046625226697499,0.6825184240206844,0.74
2266.5,1.222573608867569,0.4045749338931733,0.6321223307145267,0.74
2266.6,1.2622818773191287,0.38511447778472724,0.5675301326354764,0.74
2266.7000000000003,1.2990436354566886,0.3446885212210319,0.4901924312993608,0.74
2266.8,1.3307769054347685,0.28363447270357084,0.40184606474864304,0.74
2266.9,1.3553505497508542,0.2041226584835135,0.30447510191237304,0.74
2267.0,1.3710305747614706,0.10890300300251127,0.20026628469683944,0.74
2267.1,1.3764853066340224,0.0012939026805314224,0.0915599184755293,0.74
2267.2000000000003,1.370785391346743,-0.11481777408468363,-0.019202686123931754,0.74
2267.3,1.3533526058581464,-0.23403432465434398,-0.1295340397912498,0.74
2267.4,1.3241817873440258,-0.35009205338359234,-0.23695633818367326,0.74
2267.5,1.2837770545757636,-0.45840185146043916,-0.33905710806774064,0.74
2267.6,1.2329840095171307,-0.5555774906933755,-0.4335433862683978,0.74
2267.7000000000003,1.1729896659723362,-0.6394350790216801,-0.5182932146780781,0.74
2267.8,1.1053224495871623,-0.7089930605139569,-0.5914032948596752,0.74
2267.9,1.0315609870040565,-0.764431857505806,-0.651231732028562,0.74
2268.0,0.9529328576520749,-0.8070085415705002,-0.6964349084682675,0.74
2268.1,0.870603606931245,-0.8383624466822228,-0.7259976582884293,0.74
2268.2000000000003,0.7855841878020974,-0.8602533871441227,-0.7392560658616271,0.74
2268.3,0.698730867524449,-0.8745616040257691,-0.7359123759370032,0.74
2268.4,0.6107452276550787,-0.8832877651637372,-0.7160416805817622,0.74
2268.5,0.5221556101578368,-0.8882759700311388,-0.6800902327750386,0.74
2268.6,0.4332394157200111,-0.8904108401935623,-0.6288654245278094,0.74
2268.7000000000003,0.3441856285177496,-0.8904947228887203,-0.5635176545987314,0.74
2268.8,0.2551673100248596,-0.889092362599912,-0.4855144930195086,0.74
2268.9,0.1663416105872435,-0.8865093897566524,-0.39660772263419675,0.74
2269.0,0.07784976942451893,-0.882792320734665,-0.2987939978343355,0.74
2269.1,-0.010182885370385919,-0.8777285578558862,-0.19427000400478667,0.74
2269.2000000000003,-0.0976489334294814,-0.8709485247079302,-0.0853831247059214,0.74
2269.3,-0.18436680896066465,-0.8619200159337717,0.025421275498421436,0.74
2269.4,-0.270024085682976,-0.8497350628690281,0.13565476866008724,0.74
2269.5,-0.35423972454922326,-0.8335232717093375,0.24284174817165483,0.74
2269.6,-0.43656602783483456,-0.8124684652771135,0.3445750255550593,0.74
2269.7000000000003,-0.5164886391382153,-0.7858086830214106,0.4385698907247553,0.74
2269.8,-0.5934265433793043,-0.752836181018434,0.5227154216490482,0.74
2269.9,-0.66673206680176,-0.7128974319708167,0.5951218911106749,0.74
2270.0,-0.7356908769714906,-0.6653931252080755,0.6541632059044543,0.74
2270.1,-0.7995590903845835,-0.6098342289162397,0.6985134253858852,0.74
2270.2000000000003,-0.8575714890217829,-0.5466468564667677,0.7271765392389442,0.74
2270.3,-0.908896432358475,-0.47709543450353586,0.7395088357201673,0.74
2270.4,-0.9529177608001491,-0.4027192178371247,0.7352333580375505,0.74
2270.5,-0.9892513010271348,-0.3253179038642557,0.7144461242025503,0.74
2270.6,-1.0177448659948793,-0.24695163256751995,0.6776139706724935,0.74
2270.7000000000003,-1.0384782549340246,-0.16994098651503575,0.6255640682098903,0.74
2270.8,-1.0517551956281868,-0.09688727793495786,0.5594653454115227,0.74
2270.9,-1.058069622363478,-0.030794226570316857,0.48080223709091774,0.74
2271.0,-1.0582492292016699,0.02572419879423707,0.3913413470736445,0.74
2271.1,-1.053330749640092,0.07068606925462348,0.2930917740830253,0.74
2271.2000000000003,-1.0445293540176288,0.10270399435093464,0.18825999171425636,0.74
2271.3,-1.033215306202218,0.12099356861796787,0.07920029579634988,0.74
2271.4,-1.0207692223716223,0.12533414961883704,-0.031638068019437984,0.74
2271.5,-1.008602226671376,0.11596381870296696,-0.14176590903480576,0.74
2271.6,-0.9980295719537902,0.09370487302236391,-0.24870999336243307,0.74
2271.7000000000003,-0.9902532643445352,0.05997685509266934,-0.350068587426692,0.74
2271.8,-0.9863225325587268,0.016688759965571297,-0.4435653957201162,0.74
2271.9,-0.9870923822856813,-0.034312745651814636,-0.5271006814959089,0.74
2272.0,-0.9933029851017666,-0.09090401965609152,-0.5987984223267365,0.74
2272.1,-1.005399452129016,-0.15061315970339242,-0.6570484415249735,0.74
2272.2000000000003,-1.0235217235307041,-0.21062984825794362,-0.7005425692392414,0.74
2272.3,-1.0475045685109903,-0.26780535259096844,-0.7283040211283911,0.74
2272.4,-1.0769102299777173,-0.3191561638515857,-0.7397093348332856,0.74
2272.5,-1.1110056503267354,-0.36149046331353907,-0.7345023715965509,0.74
2272.6,-1.1487304278757928,-0.3913847501577148,-0.7128000685869965,0.74
2272.7000000000003,-1.1887333759018541,-0.40592439393425006,-0.6750898127425499,0.74
2272.8,-1.2293725464590846,-0.40270404250125164,-0.6222184951112594,0.74
2272.9,-1.268715479952388,-0.37982713356457654,-0.5553734915032373,0.74
2273.0,-1.304793995400453,-0.3358135947249227,-0.47605599659050185,0.74
2273.1,-1.3354618471480268,-0.27148788515642286,-0.38604731031022926,0.74
2273.2000000000003,-1.3586503705811968,-0.18912704413881717,-0.28736883370843025,0.74
2273.3,-1.3726932208966238,-0.09157658293141985,-0.18223667263226578,0.74
2273.4,-1.376326373102186,0.017749515229147472,-0.07301186876773101,0.74
2273.5,-1.3686861970037698,0.13485187025865605,0.037852624264743215,0.74
2273.6,-1.3492590751103668,0.2539099822573848,0.1478670289616514,0.74
2273.7000000000003,-1.3181547496188784,0.36895308742588984,0.2545606589711289,0.74
2273.8,-1.275934818004898,0.4755947905681833,0.3555374053799967,0.74
2273.9,-1.223502289584351,0.5706510326203114,0.44852954815718743,0.74
2274.0,-1.1621015855140095,0.6521400906482158,0.5314486842548533,0.74
2274.1,-1.0933144289536385,0.7192807862830497,0.6024326286395957,0.74
2274.2000000000003,-1.0186466020855718,0.7724473923643561,0.6598872349531498,0.74
2274.3,-0.9393188319649934,0.8130190676754276,0.7025221966019116,0.74
2274.4,-0.856470747328767,0.8426554491438127,0.7293800242629678,0.74
2274.5,-0.771087291212203,0.8631366004634691,0.7398575490290847,0.74
2274.6,-0.6839987209487317,0.8763630120950368,0.7337194682823254,0.74
2274.7000000000003,-0.595880608169502,0.8843556012658651,0.711103630083158,0.74
2274.8,-0.5072221195605624,0.8888103324068839,0.6725179374008127,0.74
2274.9,-0.4182700064830592,0.8905497735528352,0.6188289417070746,0.74
2275.0,-0.3292105131693964,0.8903513088814212,0.5512423820988437,0.74
2275.1,-0.24021402568549172,0.8887361136437224,0.4712761069967961,0.74
2275.2000000000003,-0.15143501897017253,0.8859662490370368,0.3807259865420779,0.74
2275.3,-0.06301205683678968,0.8820446622049352,0.2816255812263999,0.74
2275.4,0.02493220802920504,0.8767151862371851,0.1762004725050982,0.74
2275.5,0.11229019585588787,0.8696123512154299,0.0668182810373423,0.74
2275.6,0.19885353696120384,0.8601162838614621,-0.04406450497083821,0.74
2275.7000000000003,0.2842968706052739,0.84731362643659,-0.15395769719547298,0.74
2275.8,0.36822794928828334,0.8303431014958057,-0.2603933314538589,0.74
2275.9,0.4501878668342091,0.8083976482207198,-0.36098109286249835,0.74
2276.0,0.5296510583892587,0.7807244224197745,-0.4534619971542315,0.74
2276.1,0.6060253004222618,0.7466247965281936,-0.5357591225959911,0.74
2276.2000000000003,0.6786517107249901,0.7054543596077784,-0.6060242531728256,0.74
2276.3,0.7468047484108534,0.6566229173476879,-0.6626793855339198,0.74
2276.4,0.8097480694529647,0.5997124066646523,-0.7044521675478925,0.74
2276.5,0.8666889921228647,0.5353584104339031,-0.7304044725874292,0.74
2276.6,0.916822629778779,0.4648809711442047,-0.7399534678313446,0.74
2276.7000000000003,0.9595718306056303,0.3898631362268885,-0.7328847034327807,0.74
2276.8,0.9945914290628983,0.31214839570017444,-0.709356928600766,0.74
2276.9,1.0217682458857886,0.2338406821671113,-0.6698985264351592,0.74
2277.0,1.0412210880844182,0.15730437081693027,-0.6153956475815201,0.74
